30930.4053177
-24543.0727409
-51979.9747838
-9948.2653018
41385.6058266
32855.6186283
-23288.0121479
-47890.4000284
-7837.6972923
47251.7458225
37122.8672990
-21553.6089274
-50094.2656535
-8961.6581362
41872.3883340
29085.7355022
-23507.2252513
-54799.5181698
-11400.0948531
45854.6146002
35471.7193579
-24163.1082206
-50658.1342650
-10324.5504046
46253.3350849
34180.0686479
-22802.7178046
-52209.9993065
-9136.1031873
45638.1005494
35451.4030347
-25971.5137420
-48593.8504552
-10210.4870103
56291.9066339
40739.7663455
-24308.3884412
-55761.9897683
-7094.4886654
43055.8370845
41480.2770052
-21603.1828861
-45714.3686541
-5597.8973508
46513.5043462
40966.5204256
-23825.6905423
-56041.6948595
-8741.9047984
51010.3678168
37655.9031494
-24152.1858688
-49069.1528594
-10983.1597800
46092.4280778
35398.4677608
-29377.5394767
-53274.5759307
-11928.9348266
47440.2229624
33653.2894264
-27188.2621633
-60714.8481774
-11391.3439254
52634.8405432
38339.7266400
-31401.9118351
-53571.1118961
-10760.4672857
48084.4854566
35976.9943632
-23765.6487984
-50465.2653244
6909.9592415
72704.2895478
68437.3391688
14724.6252925
-18923.5821423
25167.5131259
71778.9829854
52320.3983670
-27902.1195741
-65846.2265590
-23397.8729364
38886.1430153
23944.0506719
-41135.3224315
-73398.3692182
-21596.7103393
38831.9903182
35858.8244441
-31189.7948044
-50353.9814386
-13051.8971584
46018.7463603
36766.3007748
-29035.8175954
-57909.4257073
-11194.8873970
41867.2943331
36301.5792486
-29685.5624695
-57627.1148133
-9065.4066190
46292.3470847
37146.3020848
-26617.0675891
-55425.1441000
-9105.8902362
50752.8231630
41892.9384277
-25402.3308981
-54308.5988943
-8724.9304242
52570.9267904
41188.0806950
-26639.1512702
-51264.8086604
-7292.4205292
55516.7001292
40294.0035465
-26413.0869003
-60066.7050257
-7435.7901952
51054.7124020
44501.0732072
-21126.0699324
-56133.3348505
-5529.5619526
59310.7027133
46103.3976060
-19672.6495154
-53408.7242058
-2215.8588112
59393.2957157
44736.4137313
-20299.5094560
-49236.6192441
-1896.7569273
54932.9052395
46558.8081412
-20195.2685087
-54219.2731796
-3060.0410226
62039.6898483
52111.5565953
-19517.1834377
-50432.7224214
-3441.9695844
59257.5747611
47793.4965055
-21136.4346115
-56290.5884504
-7763.3115135
53181.3364917
44003.1917586
-25301.3359212
-51138.9964533
-9963.3806500
54603.1360372
41317.2437957
-25242.2387029
-54686.0196694
-10141.1536511
51082.9664834
41582.9769108
-28543.2762480
-61842.8762830
-10698.0203914
48506.0534639
33930.2360624
-26093.6700808
-61056.3728404
-10729.5696247
52366.6271898
39473.1621286
-31096.9118351
-57345.7040621
-9661.6409293
47969.0984573
35301.7263650
-28376.4817924
-56607.5133494
-10215.0693705
47472.9825778
39851.4876783
-25799.3922046
-59335.3424898
-10994.0008145
46394.4762570
34975.3724837
-25467.8727249
-58778.3789935
-10561.7061097
49245.4365652
41983.2836217
-27039.8395574
-52701.4234741
-11365.3949181
46536.9608803
38853.3206713
-28801.3224852
-52353.3317785
-12126.2091994
48680.5810047
33911.1731017
-27550.4657902
-56868.9586065
-11192.2933232
48283.2987903
39524.7954650
-26720.5118941
-60549.1364741
-11559.6865336
45802.9715208
35719.6548167
-24512.4768293
-49143.9056881
-11219.0897652
41345.6459306
34757.8280523
-25257.9542775
-47307.8552333
-11044.6501132
42631.8835581
34807.3805563
-24506.6988566
-52725.7155909
-11723.6696164
44371.5448278
36062.9556479
-23301.6362017
-62665.6593467
-11533.1965387
48497.2960019
36604.8256981
-25477.6039452
-54714.4368445
-11164.6026449
40810.0491047
32503.0890521
-22285.9095289
-49444.9451073
-11380.8398046
41832.6749688
33333.7083008
-24393.5868217
-43897.7337161
-8792.7603560
49075.2419026
36664.5853232
-25088.9297648
-43209.2099708
-8059.0860808
42749.7490642
32646.7883194
-21207.0263403
-56135.9313135
-8453.1020681
39286.6212173
29666.5351438
-23558.3900146
-42283.3114559
-9088.6725959
46376.0898904
35489.2988305
-24629.6940833
-49093.0616018
-10826.7397034
48209.4337856
32295.4172340
-26267.2693452
-49495.7366402
-10546.6873403
41971.5847626
31323.4916993
-20968.1027066
-54973.6738752
-10038.7240720
47445.0074869
34799.7493097
-19477.0711026
-41782.7933495
6115.0774041
62572.4535553
65161.6711014
15412.2115592
-3817.7593592
29193.1122697
65906.5915900
48448.5581811
-23143.3273897
-56787.3255932
-23647.1930974
20304.2693656
16500.4932022
-39368.0731693
-58434.9818558
-19785.6783529
25152.8694736
21651.9025126
-29491.4904055
-56467.1752359
-11590.2173152
34618.4900347
28874.2631311
-24172.9577942
-51892.3993253
-10341.3812690
40092.0441160
27976.9349377
-24832.2498216
-45960.1580114
-9313.7118052
44067.6433522
32438.8671929
-18701.9559680
-43801.7333891
-9392.0328899
33698.3807021
32268.3944030
-22254.6093172
-41844.2028804
-7921.2227059
30992.0678142
35673.4962379
-19576.7842111
-46604.7010493
-7272.2190655
44051.3681964
30255.6031694
-19356.6038128
-44258.5673798
-6101.2351997
44539.1643867
31563.4888313
-15814.2452937
-45195.7145953
-2203.6276724
47856.4783008
33974.3662904
-14925.2029939
-35059.9497867
-1681.3173196
48320.4841035
38566.8606126
-14123.0548358
-36383.1093385
720.2355803
41862.7793560
36093.5389438
-13579.3133201
-36112.4912841
-1195.7341594
45736.3925911
36187.0124291
-18041.3822513
-38898.2012042
-2103.6738615
48498.4715836
36979.0287300
-19725.5852894
-39383.9973677
-5674.3430776
33857.1667468
32961.5905679
-19013.9305509
-37368.2807188
-8639.2708516
29680.9947944
22729.1458590
-22203.8801998
-46874.3325212
-10216.4769641
37538.8652749
31364.4208250
-23495.7614823
-44604.2110533
-9857.6768898
33646.9364665
27775.3916196
-20427.2857664
-46470.9542924
-9763.7028048
35857.4173426
28124.3097575
-18493.4909881
-41105.4879093
-9152.4223314
35445.4066014
28813.7362456
-21839.2360782
-50151.2368638
-8961.2443636
34997.1821211
23968.7876169
-18580.0971956
-46073.7592730
-9096.9464868
42022.4173054
26420.6678327
-20525.5257788
-45201.1232387
-10052.4238289
36695.8341451
32868.5332646
-21884.6678100
-49345.2070237
-9776.0736549
36657.7699508
25296.5286625
-21588.7782876
-51334.0515688
-10259.6753409
34133.0412863
26850.6355564
-19472.2411561
-51676.0705860
-10524.4926783
35350.3060725
28596.4053678
-18775.3249613
-44290.4866298
-10774.7910512
39550.4724739
29068.5725336
-22906.3359364
-49788.3599717
-9985.7569088
30213.8677215
28157.7130202
-23938.2669498
-51485.4724524
-9358.9835972
35958.9464620
28234.6512779
-21212.5371890
-49085.1559893
-10591.1473764
35901.5160736
34788.9683864
-22546.6367869
-45526.4469004
-9680.9175923
34416.7819472
27577.4212237
-20755.1149342
-46881.7987059
-10033.7383285
29718.9642864
29530.9662329
-23233.3479190
-49939.7054292
-10805.6460495
41135.4025388
28135.7850453
-22025.9603068
-50293.8064561
-9353.0301319
34523.3821437
37367.5570557
-22606.0225578
-45645.4905008
-8076.0050563
42594.7540093
28355.4332822
-23335.4681733
-52403.3900430
-9070.3479668
40050.2636038
35673.8002250
-19036.9911563
-45614.0948496
-8840.4522376
39896.8436147
31973.2495775
-21184.7605243
-46074.0878250
-8193.6422675
40862.6609549
34586.6765316
-23210.1748485
-51513.9795548
-7570.5752957
40906.6807334
35711.3952961
-24677.3648325
-50434.4903454
-5751.2514413
50561.2192517
34454.9611096
-20811.7101468
-54432.7222071
-7686.9910763
36182.2350696
36514.4300325
-24064.5942860
-51604.9068636
-9840.0847880
41272.9588244
31642.8821291
-24060.9171005
-50626.5342140
-10250.9835974
39454.0799306
32024.8885905
-20375.6052075
-54797.9580551
-10382.9357898
42815.4339451
34561.1404248
-25550.1916482
-48646.4873184
-6846.3493242
51932.5770287
47114.5599062
-8697.3746953
-29645.5910006
27204.2158984
84502.7975537
76044.6182523
11938.5440172
-31351.4180873
1158.5139707
40598.4960087
23327.8617550
-38316.9452505
-73638.4333818
-25474.3127606
31807.6058585
31604.6893685
-32130.5613691
-60483.1345121
-14959.1094024
39733.2818398
35438.4213167
-29738.2527403
-58939.7240972
-10878.5521829
53735.8983342
30654.1568523
-24619.3086762
-55886.0369899
-10523.9243883
47914.7068392
41020.3906247
-25941.1674144
-55683.3499739
-9873.2835520
49026.2311926
36470.1550948
-24979.8643779
-56851.3381153
-10010.9195129
40292.8047099
39510.9359554
-24430.4831733
-57975.2817236
-8395.6782175
53951.9695148
37653.4801787
-20295.9288273
-57937.6348377
-7049.9639523
45336.1993495
41487.9826618
-22139.7552450
-55411.3573363
-6460.0605897
53193.3769757
40677.5466584
-21782.3846793
-51499.9507559
-4354.4332535
52035.9209546
44278.4982580
-20170.2655429
-54066.1461155
-3002.1039176
57181.1221884
45603.4570740
-18989.9938246
-44147.1908140
-1160.9274384
62888.9292323
48325.4845088
-18064.2774148
-52665.0183318
-3551.2199128
54920.6351306
44689.3865344
-19538.0727102
-55435.3458191
-5718.0531605
58921.3988629
46075.4540639
-20508.7457959
-55795.3130189
-7296.5875798
49553.8946555
40955.5484549
-27923.2395601
-54028.3393493
-8988.4843008
49911.7013886
44196.5565953
-27572.9923539
-59062.4870917
-12636.3962482
50698.4592724
38846.8922718
-29177.3582132
-60211.2632609
-11013.2927581
43682.6974920
43493.1693066
-28759.7071414
-59558.0472396
-11268.9380629
51973.9297103
44298.5565953
-28647.1087933
-56125.1282788
-10568.6719484
53497.1288563
37663.7886616
-28893.9033928
-49090.6743637
-10564.7288875
51885.2062246
42976.2818723
-25781.8048080
-52022.4334416
-10053.8862437
45996.5017525
39117.2595054
-27208.9989254
-52907.7513759
-11064.6891691
49061.7476309
42214.5664404
-24193.8393588
-54436.8694208
-11469.8104167
46058.0937192
38098.1403383
-27875.3648852
-59221.9337520
-10774.7814482
49090.3331476
35829.8888068
-29595.7210192
-58592.4090978
-11834.6353705
55171.9145073
34551.0636212
-30987.9496867
-48591.4643394
-10742.5481237
43127.2525452
33934.6038708
-28935.5479158
-60063.7046863
-11676.0473957
47065.4184894
38904.1295272
-29692.3158546
-53372.1620219
-11682.2595888
46969.3118044
38314.6375776
-27076.0695602
-58130.7254397
-11754.3316098
44654.6793850
34916.2610988
-28242.7916901
-57600.8969366
-12132.6132169
42929.6821675
35572.6659800
-27735.1453859
-61231.4189361
-11190.3466636
47397.8115521
37178.4089900
-30817.2106459
-53514.4522696
-11247.0572213
42848.2502277
31448.7095760
-30976.5294367
-52400.5508847
-11259.6732902
50482.6510177
30880.7135857
-29065.5273903
-51409.7406599
-12441.9892714
37801.0971729
30681.6769710
-26504.1924018
-60455.0272494
-11628.9384937
43956.7348800
39152.3740356
-31187.3568233
-58846.4615707
-11194.1927696
43170.2903386
31230.8131087
-27489.3606923
-49495.7286810
-11908.6727289
51638.6489749
37102.4138447
-25464.4940894
-56443.5040269
-11104.4698397
51186.7146465
33231.0117725
-25949.7911209
-52302.0648127
-9391.9148646
47920.2959285
30565.9662967
-22826.9749816
-52665.9066647
-8441.5647550
46481.7823548
30085.0304324
-24638.6873017
-59308.4829947
-10772.5636982
44613.7638359
28062.7916523
-30562.3989251
-53311.3574773
-12299.5895578
41846.1301753
33673.3658358
-24288.6719535
-54043.5020630
-11436.6045133
35235.4460929
34875.3681372
-25885.9055364
-54581.7074970
-12165.9981498
39650.7386126
38377.6903120
-23160.8140525
-40361.6956024
759.7426831
62561.7334780
62627.1463498
13664.4837091
-13679.5661072
31144.7227912
77911.2019386
48685.3070350
-17296.6768226
-59718.2422870
-23305.2986465
26730.1135872
15889.6336161
-43570.1210454
-69412.0547207
-22303.3570543
32889.9567970
20036.4696836
-29300.0386986
-56973.0568140
-13286.1681734
39001.9708587
28395.8467281
-28172.8241854
-51076.4319969
-11458.0950618
41259.2325617
25725.5830813
-25764.6132460
-45811.8647584
-11581.2845009
37600.6185729
30443.6963967
-24893.7602526
-41452.6689680
-9916.8259796
42314.4253396
32791.5867826
-23849.5799879
-42653.6339128
-9871.8623312
41556.0468457
31004.8698643
-24437.4519677
-43868.4996590
-8086.8388517
30828.4442169
34207.3267743
-21641.1579578
-38561.9567446
-6118.7634485
37473.6780593
34811.4269566
-18998.6776244
-40149.8840532
-4938.6833352
38262.3206381
28867.4682976
-15042.1235002
-36501.9496411
-3608.2797823
43368.3870065
33771.4125890
-19398.3381702
-36118.5433844
-2526.9358341
50601.1555903
32511.9666176
-14497.6870645
-36106.0361382
-1338.2352135
46171.4026793
34134.6842325
-14503.3494495
-38638.1121526
-3248.1977169
37691.5316040
35695.3653752
-19721.8563576
-43177.8310457
-6105.3735453
36133.4111994
28075.7438705
-25174.2226811
-48493.6613268
-8879.2756731
36005.2246838
26051.5730999
-24526.5846119
-49017.1442205
-12106.4481039
30549.8735051
25996.3304153
-21172.1579224
-42527.1407348
-12347.1420076
29938.6041659
23237.7475987
-24030.9596765
-49635.2601994
-10721.1865390
26530.1847347
23319.3773352
-25799.0896616
-47791.8286849
-11764.3944346
29963.4215092
21747.6636778
-23848.5588909
-46772.1614887
-10703.9709775
37449.8298908
27677.8337502
-23605.1316668
-48477.3055553
-10606.4637275
37471.2726219
29563.0017589
-25401.0756132
-42818.0979142
-10427.2973656
33133.5005635
24447.2850406
-21284.2908171
-47441.4644825
-10695.0683228
35514.2669680
25715.9869443
-23080.8809083
-49192.6482656
-9829.7929700
33757.1922860
26074.8558530
-25024.5985051
-41250.9746998
-12300.2611657
34102.1247291
26441.1348248
-23091.5452271
-48930.8140436
-11494.7150992
37719.6409982
21681.9167990
-24216.2757047
-48542.8672436
-11421.5343726
31883.9315859
24486.4991892
-24523.5389185
-40018.3445419
-12162.7817988
31886.3932991
26333.7631240
-24609.6156510
-44991.6841611
-11223.4960190
26743.7618510
28327.6687482
-25787.9034972
-40246.2801193
-10757.3708051
30088.4856139
26082.4480861
-25100.8169195
-51298.6393924
-12052.7262780
39121.0498271
26142.8130161
-21660.1492550
-46702.3242397
-11217.0346942
30932.8491453
32068.6359929
-25420.1899788
-46732.0656960
-10634.1089465
32923.8738939
27728.7898889
-23322.1498607
-51278.9433045
-10578.7155329
37542.3204214
27651.2087465
-24414.9495465
-46907.2970480
-11138.8827523
38994.3709900
29773.1463528
-24739.2530953
-44129.3233552
-10771.9484340
41181.5649075
29957.0586306
-22064.4649078
-47945.1364351
-10549.0362806
35129.5134265
26302.2990959
-21783.5042083
-43828.5959224
-8778.0073293
33755.2001358
33005.3257102
-20536.7889860
-50145.0447339
-7633.3036562
40616.3829163
31496.2661655
-21128.5039746
-57655.6511924
-9535.7812944
42289.2864356
26823.6254920
-25533.7306061
-52286.6272323
-11614.4254657
35668.3332953
28357.5072182
-25137.8293430
-60953.7724855
-12202.3804286
39585.9501042
34396.5491383
-24181.7057252
-51446.3816526
-11393.7911212
38592.4906853
29741.8853104
-24488.4908411
-52363.1042907
-9904.0540238
45599.1485961
38314.8176435
-13581.1182801
-31089.6876975
16215.5388032
72473.2844702
76401.5948089
13096.0949732
-21472.4192773
8841.3811406
46685.7447467
31935.4661546
-37020.4018589
-71458.9817661
-27653.2396802
29540.5827186
18304.7977828
-42787.1022114
-61930.5007343
-19419.7433243
32147.6776214
26908.9079718
-30259.8633841
-60174.5845804
-15164.4448578
40049.7249676
28981.8068544
-28593.4522021
-50040.3491794
-12347.2133061
40194.0133674
33492.1657645
-28682.8946263
-53837.3223023
-11982.6993248
46123.9975089
28584.6933043
-24702.8268762
-48150.5527680
-12438.2969791
43277.5487803
39402.3687932
-23276.7395021
-52011.4517990
-11135.1563208
45444.7689095
37070.7634911
-23304.5369949
-59304.1683076
-10255.7996273
47611.8366634
35007.1081468
-24976.2745091
-51548.6623846
-7190.8162712
48040.9644571
38545.0280291
-24937.2134478
-42769.5034182
-6770.8247705
46142.4792198
41718.7061902
-22237.3980299
-50011.5712854
-5695.4476811
47676.1214930
45800.6940930
-19043.4247052
-43408.4371743
-4173.9612352
45608.7636447
43968.5428075
-20068.2603009
-55139.9861925
-5427.5067988
47480.0445823
39822.0253231
-23121.2785526
-55604.2839389
-7657.3471634
55015.0948904
39830.5069548
-25551.4610066
-60457.3202353
-9669.2068453
49253.4422506
36286.1788991
-27200.4446061
-59044.2568981
-12634.8656761
44726.2525210
31844.4505340
-30174.4393067
-62676.3126546
-14187.5344576
44357.1754236
34555.2535406
-32031.9551580
-60946.9802463
-15310.3415613
37326.3351357
40691.5565953
-29394.8231799
-63029.2276118
-13839.2767446
47461.7935653
35693.2795836
-29894.9960527
-65795.1100771
-14344.2822130
47202.7084216
32418.8583530
-31001.1979007
-69535.8554042
-14957.4933615
46771.9855135
34310.2394908
-30811.3749347
-62100.3261583
-14146.9081237
42282.6541093
37616.8582944
-28782.8324319
-67988.1499732
-13665.2451414
46865.4414023
38130.9222957
-31010.3359856
-63819.3997542
-15967.9158089
47095.1612046
35639.5658249
-29010.5339958
-59216.8363309
-16037.4729234
46931.5929190
36581.9615092
-33441.3388118
-68337.3885434
-15349.1172139
45260.5361289
31522.0285410
-29951.3700199
-56567.5340856
-14854.2140732
50380.0052263
30156.0117435
-31597.6061734
-57973.9647040
-15112.1027509
45452.5025221
32531.0747872
-34034.5728010
-68925.8489318
-13929.1263722
42330.6262733
34471.5086755
-34276.4838756
-61131.9462807
-15383.9121893
40607.3599562
30120.9497562
-34572.9702196
-55414.7017092
-16324.7038633
47487.7001770
36492.4465005
-32688.3008863
-61040.5837073
-14813.6706826
44665.7912250
36639.3040139
-30994.8213411
-57980.3762006
-14066.1016832
41509.6046875
37454.8122777
-30060.8362686
-54069.4164200
-14943.2531790
50086.6093306
36651.9968610
-30055.4051829
-55117.4224784
-14470.2897283
44085.3253584
31802.7759186
-31754.2245822
-68234.2503932
-14516.8551641
45099.8191504
31817.6612563
-32825.7411740
-59541.0812880
-12635.8464404
46154.6333139
37403.1649290
-28750.4059042
-63018.9607682
-12031.1801084
45885.2585647
38343.4627914
-27825.5561862
-51524.0341583
-11808.1680291
45257.2314739
34914.2067232
-30091.8383306
-61555.8444354
-12942.2474937
46711.4859253
32151.7956137
-33187.3397504
-55984.3089608
-14239.2397705
40228.1635142
39341.4194151
-27901.0556120
-61216.4217126
-13438.4146636
41711.2800697
34525.7010784
-31591.9137514
-64668.8823183
-12810.7772031
43452.2261123
37325.5897960
-24708.2270988
-55470.3830961
-6083.7245516
57590.5407957
52808.1937037
5034.6203748
-10902.1210830
28722.9506576
86616.7452116
65231.8531196
-8391.8830929
-43882.8062120
-17878.9292932
26202.6907611
15209.2286296
-42951.2339224
-70338.3289522
-25798.8484529
30532.1340291
21770.1915381
-35369.8322105
-63855.2098546
-15462.8216816
41299.5288355
36859.4429702
-26269.9421534
-50655.7813103
-13373.6744220
47706.2669901
30902.0217792
-30505.8566596
-54814.7533118
-11609.5117166
37787.5410960
34127.6961366
-24295.7074033
-53045.3849882
-11951.3157956
40557.6398060
36363.6548638
-22983.1098848
-49599.2724437
-9374.7974704
42257.0634663
35485.1538817
-24042.4366106
-54936.7152340
-8433.1493402
43716.4364757
32698.5403492
-23065.2614227
-50297.5261015
-7858.1659465
40113.6837712
32999.9012617
-19030.8608552
-44885.4356477
-5388.0116027
48172.3889699
34798.9618491
-15423.7047666
-52104.6308599
-2651.9805743
50143.7642071
38876.5038633
-16755.8846201
-41528.1505130
-1661.4547216
49557.4941788
38147.3517439
-17414.8610115
-42785.1217089
-1910.0841279
45851.8216825
38241.3593100
-13540.8379693
-39686.5222388
-2301.8913776
49826.5926799
36382.4441360
-18338.3805308
-42333.5475653
-5458.6958207
51280.1438082
32658.1270387
-19299.4035916
-47838.4304447
-6896.4309499
39007.1974921
28957.7586092
-21437.6546701
-49905.3621886
-10491.6553473
30446.8166162
26681.2083394
-19436.4909881
-49480.0006608
-11308.2355994
33038.1652274
29166.5944418
-22083.5136892
-44433.2556334
-11228.1590243
33542.3538023
27799.5247525
-22506.0168458
-45571.4019102
-10035.3377580
33820.8323809
29285.2226860
-21671.3124757
-46452.6135969
-9289.5283712
31066.7410037
31259.7142378
-23091.8729440
-54533.7125825
-8423.9410905
36067.3499192
28575.1836656
-23500.0310330
-43241.2963806
-8400.1639495
40712.3980081
27510.4184623
-23662.1396615
-48344.4367243
-9471.5079101
35149.7626567
26800.2275680
-22201.0083282
-48881.3820261
-9300.5724584
35712.1590914
24286.1429182
-20770.4184779
-45548.5470102
-8840.9196205
42171.9051515
23603.8398184
-22629.5209645
-50231.6190514
-9526.2923947
27952.1847347
25877.7143791
-20897.5151857
-37742.7682946
-10099.4041522
35574.2861914
30412.2652440
-20208.5355135
-38733.8019888
-9459.1427126
34661.1243833
29961.1766319
-24570.7265212
-49659.4915602
-9780.5485402
37819.0540714
25450.4275365
-22307.4361748
-40048.4279842
-9608.0467986
35356.8666975
32295.7180495
-21512.8992094
-45089.0289152
-9542.5584910
33635.6969125
25349.9022546
-24017.9216502
-40582.3236953
-8278.6769212
38066.4007956
31381.9311146
-20360.2994390
-42217.3712292
-8782.6580863
33582.7838700
26220.5591867
-22618.5407729
-46324.9694684
-9344.5673325
31909.4909695
27286.5631165
-21400.0138993
-40209.6458113
-8879.1335281
40861.2004920
27186.3132059
-20870.8842269
-49449.6867516
-9113.3292404
39841.1999114
31291.5536435
-18564.2006062
-44315.7448894
-7140.7662314
38112.0437484
29729.8003925
-16186.0873278
-34678.0786252
-4054.2722089
42649.3997954
33508.5863146
-16307.0062294
-39433.1606755
-5435.0379062
39209.4925553
27591.1092610
-21461.7265431
-44899.3199117
-7808.9651516
41100.0650061
27632.5345363
-23522.4936400
-44624.0060470
-9334.2133842
40127.8486466
26612.6445243
-22630.4372630
-46718.6537430
-8640.5560303
37787.5120074
29997.6129589
-22861.4570522
-47647.8227319
-8453.3807126
33218.5727825
32436.0494558
-21030.8884916
-50772.4576573
-1098.2053298
46573.2301651
54088.6181842
7138.6933393
-9104.4456856
34174.4802355
82630.6208537
60282.7244262
-4600.5343817
-40211.7831316
-13977.6084762
30095.9077375
13189.7980402
-40270.3208745
-59964.1059807
-21666.8116174
24434.6592715
25766.9767349
-30301.9724000
-48828.7116385
-10283.3429804
39810.0910342
35026.4989049
-20466.8469146
-43575.1306675
-8470.4425166
38084.9942725
30522.4244246
-18089.7697849
-49605.9297019
-8110.5981192
35994.1915084
37726.2767608
-24643.5104997
-44166.5399511
-8005.5709455
41279.8731384
35422.4214630
-19341.9101666
-55294.6650285
-6100.5038935
45170.9505667
34240.3494589
-23333.0383172
-53509.4334645
-6482.0675347
49570.8642184
35870.4829620
-20593.4268331
-45204.1920157
-4932.6379151
52087.1497895
37861.6943901
-19109.0414410
-46515.2609047
-500.1873431
53337.0448824
40751.5244322
-13935.3570877
-38666.0260927
-26.2443234
54753.2327377
40483.0557322
-14408.5281429
-43307.5411610
78.4630436
50858.9182582
44595.2431316
-14080.6782840
-45794.3239132
1187.1531521
58944.1046410
39764.4591011
-12402.7247359
-43977.0335998
685.5937728
49365.9689321
42213.9483569
-18349.7613062
-37912.7783327
-2817.3939415
55404.6886444
41397.9105848
-18792.3092109
-49941.3637949
-5447.7143093
53942.2334279
35852.6385387
-22611.2319122
-52344.2752597
-7669.5906592
37390.3289975
37448.4811630
-25659.0129084
-55901.3011611
-9002.4758749
43292.3744805
38580.9377276
-23864.4501592
-55164.3314384
-9206.3840031
44099.1840176
35545.6714450
-25028.6254246
-52500.8697228
-7856.6938940
45350.3740294
38061.7044804
-27084.4296466
-51418.8494563
-8170.5860392
49666.6627760
36323.3001691
-20891.3081968
-49535.9395346
-8322.4696847
49918.6216154
41796.6234162
-24219.8346981
-53237.1675789
-7420.5824452
53358.0497761
37530.1102840
-22358.6299892
-56534.3103433
-7459.0376143
58293.9145073
40182.3132995
-25518.4662426
-51903.6968501
-8714.0633655
48271.4237166
38118.2285077
-26628.4150892
-53801.0603662
-9636.9676702
57774.9145073
39053.6672336
-25832.8622025
-57451.8804611
-10381.6828436
49727.8855235
37476.4987602
-23556.2157110
-56029.6262544
-9028.5366106
57288.1438899
44909.1374949
-24200.2393094
-53813.3728548
-9610.7527510
55108.6951077
40062.1857246
-25103.2763341
-56669.0559114
-9201.4991411
52463.3100382
37965.4063797
-25413.8238125
-61575.0333262
-9092.1172741
45249.8063956
40294.3183722
-25808.3718646
-59322.4444808
-9998.1664669
50328.2208372
39951.5917812
-25122.3402466
-57490.5959138
-10145.9999256
47122.3169972
40251.7050069
-28224.6500473
-59206.1269499
-10348.7586844
48842.3898547
35335.3228725
-26510.3386134
-58404.6453363
-10133.5598656
55324.0354486
42234.4744840
-27403.0708291
-56126.3102112
-8511.4367857
51313.7462035
43212.6150562
-27460.8497982
-60406.8407060
-9143.4689498
49986.5838486
42055.2941264
-24929.2083588
-54684.3365606
-9392.9996621
53651.1151545
40034.7661754
-23838.7836229
-53797.0691485
-9242.3839204
51816.5175321
41607.1534577
-26241.3825474
-55699.3863678
-8085.3741688
52263.8176696
45680.1266931
-26209.5195135
-49216.7147096
-6025.2195977
54027.4886929
43025.3358452
-25430.0492613
-53734.8634135
-5604.6444317
55100.9952610
42985.4099688
-24723.0003235
-62107.8018873
-8435.9101514
49773.1391072
34798.7644482
-25172.1463184
-61096.2719072
-9239.7502892
41836.1566898
38038.3471677
-27797.6948375
-58312.7430624
-8958.0965479
47447.0071121
38305.1798906
-24212.8575998
-47330.7147929
-9495.2563001
53921.5610349
35113.1908261
-26716.0014018
-52101.3814235
-3911.1265563
60836.7970961
59162.9299024
3090.1277027
-14802.2455867
32098.9980742
86252.3488453
71744.6875599
-4166.7534064
-43695.0232277
-12123.1879166
42461.5315397
26191.7321053
-37885.8581043
-70612.1987014
-23998.0826259
31197.1813509
30396.1326271
-33381.3392070
-54177.0146062
-12883.1957573
46509.9326677
38327.0662982
-24117.9075095
-55132.7541857
-8600.7800559
38657.0884336
37516.0798498
-26912.6198941
-54427.5123323
-8918.6275217
46394.8946532
34781.2323389
-23714.0090411
-54078.4870334
-8082.6430393
49919.8563755
38394.1599097
-23773.7271491
-54726.4475355
-7099.3704101
50018.6842838
37153.6145865
-22931.4133414
-47624.6555211
-6129.2159803
48443.9871074
33643.4978983
-20344.4365281
-41943.6100248
-5718.1533559
52806.2466553
37622.2842377
-19907.6463112
-49722.9937452
-3889.8649836
51318.1603757
43666.8688027
-15966.3195237
-44242.1399855
-1135.7243280
49419.8032713
43260.6060399
-15805.3291852
-46568.9553167
-242.3535714
55066.8780736
45805.4465011
-18626.9206176
-33255.3377336
1329.9570523
58057.1028101
42542.8773029
-15664.1304365
-41492.8676997
-1294.8214775
47192.3968117
45165.4984603
-18905.3400643
-38535.9505289
-3266.8983382
44180.6968835
38272.3004221
-18361.2526961
-35917.6296143
-6078.7619832
44786.5771809
39140.2063380
-22510.1103244
-56699.7807916
-8372.0891672
41143.9289279
32036.8687302
-22054.3670103
-39566.0442261
-8796.3598859
33253.3194404
33223.6753984
-20615.7968790
-44533.4431902
-8518.5367551
39760.2375281
32211.2827544
-23926.9971824
-44553.1204170
-8393.2723607
50388.2036725
33295.4833553
-21182.6186654
-43122.8174090
-7736.9896717
37333.3770600
33004.5832025
-21153.7909705
-36866.5258703
-7314.8708685
44481.3411068
31148.0390768
-19520.5241366
-39673.0029435
-6272.4350719
43007.7403126
31274.3670146
-22091.0308286
-51033.4664451
-8260.7049797
37394.0931733
31408.4470455
-19981.1967823
-42271.9156368
-8281.7707258
35782.2187536
24404.8035390
-19453.0834806
-43718.6642421
-9137.6756219
36464.8823559
31595.4152098
-20964.2285947
-49841.0326111
-9164.0856230
41962.6772606
24898.9142274
-21408.1715294
-47479.3327637
-8511.2071161
39768.4870401
29608.2242206
-19920.7459032
-37923.8094304
-8040.9692346
46726.8506841
28025.0318206
-17408.6266978
-47096.6428153
-8897.6098616
41475.3876466
30229.9076554
-22789.3074377
-51599.4805270
-7970.0459356
33540.8613012
26179.3483632
-20076.5439960
-49251.5013309
-8281.2955615
38768.0027029
24036.4322695
-19346.2500004
-36275.6666939
-8846.3538343
42318.8061162
31131.1519268
-18900.3436971
-49565.3324924
-8194.5246493
32145.3140851
26048.3379884
-19866.6403108
-43579.4221601
-7910.4861076
31570.1615874
32318.3661994
-20265.7832812
-40584.0639964
-8878.7787323
32213.3616299
24031.7530826
-23042.0471027
-50976.8512951
-7911.6817913
36239.7976170
25568.1330613
-20461.2811699
-41482.8841152
-8145.5070479
37858.7490694
25622.2571975
-20016.4081855
-36385.9168330
-8081.5807522
35849.9870689
29148.2161354
-20984.9828913
-46470.6875407
-6072.6351210
32937.5553287
32519.3914057
-14795.4909881
-41825.7588306
-4812.1362928
45198.4356907
32880.2725455
-16875.5798972
-45057.8257753
-4382.7340720
36179.7830011
27425.8317193
-17788.2370872
-43198.8506451
-8128.6434772
40434.5421441
23901.2489998
-20647.4297468
-39720.8834691
-8186.1883949
45255.4387373
29982.8272377
-22675.7947279
-52027.2539718
-9046.6655907
35666.2785328
25923.6140545
-20771.1725721
-41953.3739612
-7241.5861158
38207.5288829
30402.9163649
-23391.5784986
-40625.3627622
-3182.0272924
45581.0715189
49950.3332842
5591.1048354
-5673.8106744
31553.5418719
79946.8967059
65735.4028785
1088.0981295
-27126.5305435
-6432.2886374
33460.2108959
16008.9673779
-36258.2278042
-50595.7682946
-24254.4291759
24831.1567936
23075.2792690
-29409.9695186
-53543.0979705
-13626.5701756
40284.7791233
28473.1917224
-22640.3634680
-50871.4827388
-10489.7477313
39649.2081915
36429.5384368
-21670.3568508
-50122.4354392
-8914.7141027
38619.6809864
30100.3486090
-22835.8464373
-43606.2865746
-7353.8940833
37944.6861081
30796.7804220
-22692.8396371
-47736.5848101
-6824.7053003
44624.4062085
33111.3204077
-20677.5173181
-49114.5653786
-5634.2466637
46168.6235573
34066.6253092
-18862.5003010
-40480.6149175
-4043.4726358
40403.6730143
33686.9168759
-16356.0694557
-39981.7954341
-2346.3429039
47896.4275179
40053.3073534
-16624.9449234
-39301.6449857
-656.2927224
55533.0254430
41980.4928619
-13986.5499419
-40755.6394292
270.8941082
49179.9184575
40274.7539969
-12418.1197806
-43685.2813167
966.9093271
51694.5776772
45110.0936078
-14113.9152668
-44001.8781501
341.3521244
50781.1048428
